# phase     R^true_U     R^true_B     R^true_V     R^true_R     R^true_I
  -20.0     4.727393     4.143932     3.172787     2.608789     1.996109
  -19.0     4.727393     4.143932     3.172787     2.608789     1.996109
  -18.0     4.725857     4.143436     3.172691     2.608873     1.998034
  -17.0     4.724704     4.143064     3.172619     2.608937     1.999478
  -16.0     4.725430     4.143298     3.172664     2.608897     1.998569
  -15.0     4.729101     4.147418     3.174344     2.608695     1.993970
  -14.0     4.736357     4.149089     3.174617     2.608144     1.983222
  -13.0     4.747412     4.149119     3.173673     2.607422     1.968129
  -12.0     4.766898     4.148985     3.171833     2.606688     1.950570
  -11.0     4.776773     4.147265     3.169374     2.606220     1.932344
  -10.0     4.795523     4.146111     3.165905     2.605967     1.915671
   -9.0     4.815893     4.145300     3.162273     2.605897     1.902806
   -8.0     4.833046     4.141159     3.157577     2.605809     1.896865
   -7.0     4.846817     4.137986     3.154138     2.605179     1.894040
   -6.0     4.855266     4.138178     3.151341     2.604426     1.891984
   -5.0     4.857341     4.139252     3.150709     2.604504     1.889541
   -4.0     4.851421     4.137075     3.149137     2.607083     1.885037
   -3.0     4.840070     4.134976     3.147962     2.611630     1.880461
   -2.0     4.826335     4.133576     3.147257     2.617480     1.876090
   -1.0     4.801503     4.131013     3.146381     2.623943     1.872271
    0.0     4.789825     4.131727     3.144986     2.629625     1.869742
    1.0     4.780719     4.132642     3.145706     2.634939     1.867825
    2.0     4.776771     4.131224     3.145510     2.638730     1.867683
    3.0     4.770129     4.126924     3.146283     2.640433     1.866938
    4.0     4.762041     4.120956     3.146785     2.640737     1.864521
    5.0     4.752959     4.112740     3.149982     2.641282     1.858485
    6.0     4.749521     4.107961     3.150038     2.643956     1.856455
    7.0     4.743586     4.101988     3.150546     2.641286     1.851142
    8.0     4.736605     4.096925     3.156524     2.639454     1.837936
    9.0     4.729938     4.091470     3.154654     2.638214     1.836434
   10.0     4.724083     4.086410     3.152317     2.636461     1.842015
   11.0     4.723352     4.084288     3.151622     2.633895     1.846167
   12.0     4.719153     4.076277     3.149501     2.630130     1.851062
   13.0     4.713011     4.066748     3.147392     2.625588     1.856444
   14.0     4.710044     4.058565     3.143702     2.620926     1.864647
   15.0     4.711436     4.052841     3.139447     2.616441     1.871874
   16.0     4.719788     4.050757     3.131221     2.610323     1.879219
   17.0     4.723325     4.040833     3.125705     2.600172     1.876988
   18.0     4.726096     4.034126     3.121879     2.594774     1.868788
   19.0     4.727794     4.030552     3.115069     2.593718     1.870727
   20.0     4.726972     4.026842     3.112374     2.594426     1.870816
   21.0     4.726884     4.025906     3.111156     2.594822     1.865958
   22.0     4.723350     4.021163     3.108756     2.593623     1.862482
   23.0     4.725730     4.021648     3.105787     2.591064     1.861650
   24.0     4.730157     4.023244     3.101105     2.587323     1.865129
   25.0     4.736075     4.025672     3.096396     2.581558     1.868108
   26.0     4.742762     4.027548     3.091747     2.574021     1.869308
   27.0     4.749795     4.023435     3.089071     2.567622     1.869526
   28.0     4.756454     4.024480     3.085278     2.564104     1.870500
   29.0     4.761904     4.028040     3.085881     2.564451     1.871652
   30.0     4.765200     4.031956     3.087033     2.563992     1.874183
   31.0     4.771383     4.032444     3.087316     2.565651     1.876834
   32.0     4.777581     4.030861     3.085744     2.567845     1.880027
   33.0     4.780011     4.028866     3.083922     2.570936     1.882617
   34.0     4.773629     4.029249     3.082616     2.574343     1.884056
   35.0     4.760778     4.030743     3.081669     2.577294     1.883494
   36.0     4.743854     4.032500     3.081473     2.580405     1.882019
   37.0     4.725298     4.033992     3.082567     2.583877     1.880155
   38.0     4.707607     4.036120     3.082111     2.587315     1.880009
   39.0     4.693322     4.038192     3.082650     2.589551     1.880984
   40.0     4.685040     4.040065     3.085476     2.591821     1.884067
   41.0     4.685404     4.037105     3.088544     2.594388     1.886411
   42.0     4.689315     4.033002     3.091452     2.594869     1.888418
   43.0     4.693952     4.028582     3.091887     2.591866     1.889875
   44.0     4.695687     4.025989     3.090950     2.586294     1.890589
   45.0     4.697421     4.023645     3.088956     2.579054     1.890375
   46.0     4.699156     4.022486     3.088715     2.571382     1.889630
   47.0     4.700891     4.021470     3.088193     2.563849     1.887997
   48.0     4.702625     4.021527     3.088184     2.558291     1.886533
   49.0     4.704360     4.025060     3.089433     2.556416     1.886200
   50.0     4.706094     4.029213     3.093973     2.559685     1.888497
   51.0     4.707829     4.033705     3.098664     2.565122     1.891498
   52.0     4.709563     4.037592     3.101861     2.572077     1.895220
   53.0     4.711298     4.039920     3.102223     2.578550     1.899201
   54.0     4.713172     4.040776     3.101707     2.585428     1.902746
   55.0     4.715012     4.040164     3.101195     2.591031     1.905671
   56.0     4.716680     4.038678     3.102080     2.594141     1.908967
   57.0     4.718081     4.035297     3.101569     2.593377     1.910742
   58.0     4.719156     4.030863     3.100576     2.587837     1.909802
   59.0     4.719886     4.027640     3.100035     2.579326     1.907239
   60.0     4.720290     4.023561     3.100941     2.569781     1.904280
   61.0     4.720426     4.020370     3.100978     2.561571     1.900697
   62.0     4.720391     4.018140     3.101287     2.554884     1.897019
   63.0     4.720322     4.017326     3.102116     2.550707     1.893692
   64.0     4.720392     4.017731     3.103418     2.549944     1.891140
   65.0     4.720462     4.019347     3.105326     2.551509     1.890357
   66.0     4.720532     4.022033     3.107906     2.554777     1.892149
   67.0     4.720602     4.024386     3.110333     2.558355     1.894212
   68.0     4.720672     4.025318     3.112048     2.560694     1.895190
   69.0     4.720742     4.025706     3.113502     2.563033     1.896167
   70.0     4.720813     4.025646     3.114740     2.565372     1.897145
   71.0     4.720883     4.025548     3.115344     2.567411     1.897711
   72.0     4.720953     4.025274     3.116737     2.569524     1.898380
   73.0     4.721023     4.024946     3.118677     2.572005     1.899552
   74.0     4.721093     4.024214     3.120723     2.575062     1.901511
   75.0     4.721163     4.023013     3.122600     2.578820     1.904429
   76.0     4.721233     4.021332     3.124089     2.583322     1.908363
   77.0     4.721304     4.019214     3.125025     2.588524     1.913256
   78.0     4.721374     4.016195     3.124909     2.594799     1.919239
   79.0     4.721444     4.013121     3.124168     2.601317     1.925649
   80.0     4.721514     4.010735     3.123178     2.607303     1.931791
   81.0     4.721584     4.009680     3.122259     2.612036     1.936943
   82.0     4.721654     4.009871     3.122936     2.615611     1.941388
   83.0     4.721724     4.011441     3.124570     2.617956     1.945085
   84.0     4.721795     4.014913     3.127564     2.619428     1.948285
   85.0     4.721865     4.019304     3.131185     2.619877     1.950853
   86.0     4.721935     4.023646     3.134720     2.619369     1.952795
   87.0     4.722005     4.026982     3.137475     2.618191     1.954262
   88.0     4.722081     4.028118     3.138609     2.616558     1.955526
   89.0     4.722156     4.027837     3.138655     2.614292     1.956278
   90.0     4.722223     4.026460     3.137837     2.611709     1.956566
   91.0     4.722279     4.024406     3.136463     2.609125     1.956489
   92.0     4.722321     4.022194     3.134919     2.606859     1.956199
   93.0     4.722349     4.020438     3.133674     2.605227     1.955903
   94.0     4.722363     4.019852     3.133275     2.604545     1.955859
   95.0     4.722366     4.019736     3.133196     2.604411     1.955851
   96.0     4.722362     4.019920     3.133321     2.604625     1.955865
   97.0     4.722356     4.020165     3.133488     2.604910     1.955883
   98.0     4.722356     4.020165     3.133488     2.604910     1.955883
   99.0     4.722356     4.020165     3.133488     2.604910     1.955883
  100.0     4.722356     4.020165     3.133488     2.604910     1.955883
